    Spectrum: E75 	
 Description: H20:CO2:CO=100:20:3 T=20K h=0.108 (550-4720 cm-1)
 H2O 77 K (500-100 cm-1)
 H2O 266 K (1-500 cm-1 + 4700-100000 cm-1) (Wiscombe 1995)
  freq [cm-1]  real pt (n)     imag pt (k)

    1.0056144	1.83118   	0.137349
    1.0250092	1.82981   	0.135250
    1.0447781	1.82844   	0.133183
    1.0649287	1.82706   	0.131148
    1.0854675	1.82569   	0.129143
    1.1064028	1.82432   	0.127170
    1.1277415	1.82294   	0.125226
    1.1494926	1.82157   	0.123313
    1.1716627	1.82020   	0.121428
    1.1942595	1.81921   	0.119475
    1.2172928	1.81951   	0.117235
    1.2407718	1.81982   	0.115037
    1.2647022	1.82012   	0.112880
    1.2890933	1.82042   	0.110764
    1.3139551	1.82073   	0.108688
    1.3392977	1.82103   	0.106650
    1.3651281	1.82133   	0.104651
    1.3914573	1.82163   	0.102689
    1.4182948	1.82194   	0.100764
    1.4456487	1.82224   	0.0988748
    1.4735310	1.82254   	0.0970212
    1.5019503	1.82336   	0.0948183
    1.5309177	1.82459   	0.0923607
    1.5604446	1.82583   	0.0899667
    1.5905408	1.82706   	0.0876348
    1.6212159	1.82829   	0.0853633
    1.6524855	1.82952   	0.0831507
    1.6843551	1.83045   	0.0787609
    1.7168414	1.83136   	0.0744481
    1.7499528	1.83226   	0.0703714
    1.7837044	1.83235   	0.0662282
    1.8181058	1.83199   	0.0621828
    1.8531731	1.83163   	0.0583846
    1.8889131	1.83066   	0.0544316
    1.9253429	1.82932   	0.0505257
    1.9624774	1.82799   	0.0469001
    2.0003280	1.82640   	0.0438878
    2.0389065	1.82465   	0.0412706
    2.0782331	1.82291   	0.0388095
    2.1183119	1.82121   	0.0364824
    2.1591696	1.81955   	0.0342874
    2.2008109	1.81788   	0.0322244
    2.2432591	1.81618   	0.0303152
    2.2865243	1.81447   	0.0285390
    2.3306219	1.81275   	0.0268668
    2.3755735	1.81107   	0.0253592
    2.4213897	1.80942   	0.0239810
    2.4680937	1.80777   	0.0226777
    2.5156916	1.80620   	0.0215435
    2.5642143	1.80469   	0.0205397
    2.6136684	1.80319   	0.0195827
    2.6640808	1.80175   	0.0187598
    2.7154579	1.80036   	0.0180437
    2.7678290	1.79897   	0.0173550
    2.8212166	1.79771   	0.0168470
    2.8756290	1.79654   	0.0164814
    2.9310901	1.79537   	0.0161238
    2.9876164	1.79435   	0.0158368
    3.0452431	1.79346   	0.0156101
    3.1039707	1.79257   	0.0153867
    3.1638361	1.79182   	0.0151809
    3.2248599	1.79121   	0.0149914
    3.2870517	1.79059   	0.0148042
    3.3504542	1.78998   	0.0146194
    3.4150673	1.78936   	0.0144368
    3.4809366	1.78875   	0.0142566
    3.5480747	1.78824   	0.0140813
    3.6165056	1.78783   	0.0139110
    3.6862554	1.78743   	0.0137428
    3.7573504	1.78703   	0.0135767
    3.8298181	1.78663   	0.0134125
    3.9036883	1.78623   	0.0132503
    3.9789752	1.78588   	0.0130878
    4.0557094	1.78561   	0.0129246
    4.1339396	1.78533   	0.0127635
    4.2136666	1.78505   	0.0126043
    4.2949237	1.78478   	0.0124471
    4.3777662	1.78450   	0.0122919
    4.4621940	1.78426   	0.0121408
    4.5482664	1.78407   	0.0119945
    4.6359826	1.78389   	0.0118500
    4.7254067	1.78370   	0.0117072
    4.8165382	1.78352   	0.0115661
    4.9094211	1.78333   	0.0114267
    5.0041285	1.78317   	0.0112875
    5.1006354	1.78305   	0.0111477
    5.1989915	1.78293   	0.0110097
    5.2992765	1.78280   	0.0108734
    5.4014931	1.78268   	0.0107387
    5.5056679	1.78256   	0.0106058
    5.6118299	1.78245   	0.0104761
    5.7200712	1.78237   	0.0103506
    5.8303938	1.78229   	0.0102267
    5.9428655	1.78222   	0.0101042
    6.0574856	1.78214   	0.00998323
    6.1742878	1.78206   	0.00986369
    6.2933851	1.78200   	0.00974458
    6.4147384	1.78197   	0.00962504
    6.5384689	1.78194   	0.00950697
    6.6645786	1.78191   	0.00939034
    6.7931093	1.78188   	0.00927515
    6.9241530	1.78185   	0.00916137
    7.0576610	1.78182   	0.00904898
    7.1937790	1.78179   	0.00893797
    7.3325608	1.78176   	0.00882833
    7.4739534	1.78173   	0.00872003
    7.6181187	1.78170   	0.00861306
    7.7650607	1.78167   	0.00850740
    7.9148367	1.78164   	0.00840323
    8.0674435	1.78163   	0.00830079
    8.2230758	1.78162   	0.00819960
    8.3816679	1.78160   	0.00809964
    8.5432845	1.78159   	0.00800091
    8.7080708	1.78158   	0.00790337
    8.8760285	1.78156   	0.00780703
    9.0472351	1.78155   	0.00771186
    9.2216892	1.78154   	0.00761785
    9.3995563	1.78153   	0.00752498
    9.5808383	1.78151   	0.00743325
    9.7656250	1.78150   	0.00734264
    9.9540125	1.78150   	0.00725304
    10.145970	1.78152   	0.00716427
    10.341647	1.78154   	0.00707658
    10.541107	1.78156   	0.00698997
    10.744405	1.78158   	0.00690442
    10.951631	1.78160   	0.00681991
    11.162857	1.78162   	0.00673644
    11.378144	1.78164   	0.00665399
    11.597592	1.78166   	0.00657254
    11.821281	1.78168   	0.00649210
    12.049267	1.78170   	0.00641264
    12.281663	1.78172   	0.00633415
    12.518543	1.78174   	0.00625665
    12.759984	1.78176   	0.00618022
    13.006083	1.78179   	0.00610472
    13.256920	1.78181   	0.00603015
    13.512601	1.78183   	0.00595648
    13.773213	1.78186   	0.00588371
    14.038851	1.78188   	0.00581184
    14.309631	1.78190   	0.00574084
    14.585615	1.78193   	0.00567071
    14.866927	1.78195   	0.00560143
    15.153651	1.78197   	0.00553300
    15.445924	1.78199   	0.00546541
    15.743817	1.78202   	0.00539865
    16.047475	1.78204   	0.00533269
    16.356975	1.78206   	0.00526755
    16.672447	1.78209   	0.00520320
    16.994000	1.78211   	0.00513964
    17.321746	1.78213   	0.00507685
    17.655835	1.78216   	0.00501483
    17.996357	1.78218   	0.00495357
    18.343441	1.78220   	0.00489305
    18.697250	1.78223   	0.00483328
    19.057855	1.78225   	0.00477424
    19.425398	1.78227   	0.00471591
    19.800059	1.78229   	0.00465830
    20.181960	1.78232   	0.00460139
    20.571179	1.78234   	0.00454518
    20.967921	1.78236   	0.00448966
    21.372362	1.78239   	0.00443481
    21.784547	1.78241   	0.00438064
    22.204705	1.78243   	0.00432712
    22.632934	1.78246   	0.00427426
    23.069488	1.78248   	0.00422204
    23.514418	1.78250   	0.00417047
    23.967941	1.78253   	0.00411952
    24.430167	1.78255   	0.00406919
    24.901390	1.78257   	0.00401947
    25.381613	1.78260   	0.00397031
    25.871146	1.78263   	0.00392175
    26.370125	1.78266   	0.00387379
    26.878759	1.78269   	0.00382641
    27.397109	1.78272   	0.00377961
    27.925550	1.78275   	0.00373339
    28.464159	1.78278   	0.00368773
    29.013091	1.78281   	0.00364263
    29.572675	1.78284   	0.00359808
    30.142997	1.78287   	0.00355407
    30.724420	1.78290   	0.00351060
    31.316939	1.78293   	0.00346767
    31.920940	1.78296   	0.00342526
    32.536619	1.78299   	0.00338337
    33.164196	1.78302   	0.00334199
    33.803768	1.78305   	0.00330111
    34.455789	1.78308   	0.00326074
    35.120253	1.78311   	0.00322086
    35.797644	1.78314   	0.00318147
    36.488092	1.78317   	0.00314256
    37.191864	1.78320   	0.00310413
    37.909086	1.78323   	0.00306616
    38.640325	1.78326   	0.00302866
    39.385430	1.78329   	0.00299162
    40.145166	1.78332   	0.00295503
    40.919377	1.78335   	0.00291889
    41.708549	1.78338   	0.00288319
    42.513030	1.78341   	0.00284793
    43.333002	1.78344   	0.00281310
    44.168636	1.78347   	0.00277870
    45.020506	1.78350   	0.00274471
    45.888821	1.78353   	0.00271114
    46.773996	1.78356   	0.00267799
    47.676033	1.78359   	0.00264523
    48.595588	1.78362   	0.00261288
    49.532904	1.78365   	0.00258093
    50.488223	1.800   	0.05
    100.000	1.842      	0.197
    120.000	1.846      	0.364
    140.000	1.683      	0.418
    160.000	1.597      	0.441
    165.000	1.548      	0.418
    180.000	1.548      	0.417
    200.000	1.493      	0.476
    220.000	1.427      	0.539
    225.000	1.393      	0.538
    230.000	1.227      	0.584
    235.000	1.135      	0.501
    240.000	1.138      	0.423
    260.000	1.131      	0.252
    280.000	1.149      	0.160
    300.000	1.190      	0.099
    320.000	1.219      	0.054
    340.000	1.282      	0.016
    360.000	1.346      	0.003
    380.000	1.401      	0.001
    400.000	1.411      	0.016
    420.000	1.434      	0.034
    440.000	1.447      	0.053
    460.000	1.447      	0.075
    480.000	1.435      	0.088
    500.000	1.422      	0.115
    550.193     1.55700D+00     2.13914D-02
    550.676     1.55697D+00     2.67619D-02
    551.158     1.55569D+00     3.27082D-02
    551.640     1.55471D+00     2.77383D-02
    552.122     1.55507D+00     2.72967D-02
    552.604     1.55596D+00     2.99564D-02
    553.087     1.55706D+00     2.75162D-02
    553.569     1.55746D+00     3.35031D-02
    554.051     1.55613D+00     3.73589D-02
    554.533     1.55349D+00     3.90003D-02
    555.016     1.55196D+00     3.47801D-02
    555.498     1.55347D+00     2.43136D-02
    555.980     1.55684D+00     2.58161D-02
    556.462     1.55897D+00     3.22501D-02
    556.944     1.55923D+00     3.33926D-02
    557.427     1.55903D+00     3.49264D-02
    557.909     1.55920D+00     3.22548D-02
    558.391     1.56002D+00     3.25366D-02
    558.873     1.56145D+00     3.13093D-02
    559.355     1.56360D+00     2.92026D-02
    559.838     1.56635D+00     3.08187D-02
    560.320     1.56984D+00     3.03609D-02
    560.802     1.57516D+00     2.74211D-02
    561.284     1.57945D+00     3.47585D-02
    561.766     1.57695D+00     6.51994D-02
    562.249     1.56948D+00     6.50649D-02
    562.731     1.56384D+00     5.30942D-02
    563.213     1.56214D+00     5.30646D-02
    563.695     1.56264D+00     4.57923D-02
    564.177     1.56366D+00     4.81674D-02
    564.660     1.56377D+00     5.20461D-02
    565.142     1.56320D+00     5.03903D-02
    565.624     1.56341D+00     4.76900D-02
    566.106     1.56395D+00     4.92142D-02
    566.588     1.56404D+00     5.04571D-02
    567.071     1.56449D+00     4.83979D-02
    567.553     1.56574D+00     4.61025D-02
    568.035     1.56719D+00     4.82275D-02
    568.517     1.56799D+00     5.09010D-02
    568.999     1.56828D+00     5.00010D-02
    569.482     1.56838D+00     5.31175D-02
    569.964     1.56832D+00     5.19653D-02
    570.446     1.56880D+00     5.04500D-02
    570.928     1.56979D+00     5.12214D-02
    571.410     1.57127D+00     4.96741D-02
    571.893     1.57337D+00     4.91116D-02
    572.375     1.57444D+00     5.42179D-02
    572.857     1.57372D+00     5.91235D-02
    573.339     1.57304D+00     5.57937D-02
    573.821     1.57491D+00     4.76737D-02
    574.304     1.57978D+00     4.73863D-02
    574.786     1.58736D+00     4.46656D-02
    575.268     1.59451D+00     4.55519D-02
    575.750     1.59198D+00     9.44621D-02
    576.232     1.57987D+00     1.02383D-01
    576.715     1.57096D+00     7.47207D-02
    577.197     1.56935D+00     7.11053D-02
    577.679     1.56998D+00     7.03378D-02
    578.161     1.57009D+00     7.14539D-02
    578.643     1.57070D+00     6.67731D-02
    579.126     1.57275D+00     6.44100D-02
    579.608     1.57477D+00     6.67364D-02
    580.090     1.57546D+00     7.14295D-02
    580.572     1.57456D+00     7.41460D-02
    581.054     1.57321D+00     7.44705D-02
    581.537     1.57315D+00     6.99539D-02
    582.019     1.57381D+00     6.95819D-02
    582.501     1.57390D+00     7.47272D-02
    582.983     1.57357D+00     7.18669D-02
    583.465     1.57395D+00     6.97506D-02
    583.948     1.57535D+00     7.02985D-02
    584.430     1.57728D+00     6.70846D-02
    584.912     1.57913D+00     7.09015D-02
    585.394     1.57962D+00     7.58531D-02
    585.876     1.57916D+00     7.59478D-02
    586.359     1.57896D+00     7.61045D-02
    586.841     1.57874D+00     7.74158D-02
    587.323     1.57871D+00     7.68460D-02
    587.805     1.57873D+00     7.75535D-02
    588.287     1.57811D+00     7.93178D-02
    588.770     1.57640D+00     8.14747D-02
    589.252     1.57471D+00     8.11505D-02
    589.734     1.57690D+00     6.28691D-02
    590.216     1.58257D+00     6.29967D-02
    590.698     1.58726D+00     7.18221D-02
    591.181     1.58932D+00     7.49719D-02
    591.663     1.58933D+00     8.22615D-02
    592.145     1.58922D+00     7.92526D-02
    592.627     1.58977D+00     8.05977D-02
    593.109     1.59041D+00     8.34959D-02
    593.592     1.59090D+00     8.32269D-02
    594.074     1.59020D+00     8.93143D-02
    594.556     1.58886D+00     9.05861D-02
    595.038     1.58862D+00     8.38225D-02
    595.521     1.58989D+00     8.54646D-02
    596.003     1.59109D+00     8.71817D-02
    596.485     1.59256D+00     8.49749D-02
    596.967     1.59405D+00     8.83163D-02
    597.449     1.59450D+00     9.22865D-02
    597.932     1.59434D+00     9.40709D-02
    598.414     1.59390D+00     9.42270D-02
    598.896     1.59371D+00     9.53372D-02
    599.378     1.59383D+00     9.57296D-02
    599.860     1.59432D+00     9.41822D-02
    600.343     1.59490D+00     9.78951D-02
    600.825     1.59452D+00     9.98066D-02
    601.307     1.59409D+00     9.95858D-02
    601.789     1.59414D+00     9.87633D-02
    602.271     1.59388D+00     1.00662D-01
    602.754     1.59215D+00     1.04793D-01
    603.236     1.58934D+00     1.06949D-01
    603.718     1.59065D+00     8.74654D-02
    604.200     1.59743D+00     7.80284D-02
    604.682     1.60376D+00     9.34946D-02
    605.165     1.60606D+00     1.00416D-01
    605.647     1.60560D+00     1.04260D-01
    606.129     1.60488D+00     1.05944D-01
    606.611     1.60448D+00     1.05477D-01
    607.093     1.60419D+00     1.07640D-01
    607.576     1.60436D+00     1.07643D-01
    608.058     1.60515D+00     1.04847D-01
    608.540     1.60673D+00     1.06284D-01
    609.022     1.60812D+00     1.07778D-01
    609.504     1.60913D+00     1.10192D-01
    609.987     1.61080D+00     1.08458D-01
    610.469     1.61256D+00     1.10469D-01
    610.951     1.61351D+00     1.16178D-01
    611.433     1.61334D+00     1.18830D-01
    611.915     1.61285D+00     1.19069D-01
    612.398     1.61277D+00     1.20721D-01
    612.880     1.61251D+00     1.21590D-01
    613.362     1.61312D+00     1.19596D-01
    613.844     1.61477D+00     1.18530D-01
    614.326     1.61654D+00     1.21079D-01
    614.809     1.61807D+00     1.23926D-01
    615.291     1.61903D+00     1.25186D-01
    615.773     1.62032D+00     1.26008D-01
    616.255     1.62161D+00     1.29044D-01
    616.737     1.62210D+00     1.32857D-01
    617.220     1.62112D+00     1.37821D-01
    617.702     1.61802D+00     1.45944D-01
    618.184     1.61633D+00     1.34765D-01
    618.666     1.61794D+00     1.29092D-01
    619.148     1.62030D+00     1.35605D-01
    619.631     1.62230D+00     1.34159D-01
    620.113     1.62395D+00     1.35472D-01
    620.595     1.62570D+00     1.38139D-01
    621.077     1.62740D+00     1.37973D-01
    621.560     1.62941D+00     1.40931D-01
    622.042     1.63058D+00     1.44334D-01
    622.524     1.63114D+00     1.47342D-01
    623.006     1.63136D+00     1.49862D-01
    623.488     1.63191D+00     1.49084D-01
    623.971     1.63360D+00     1.49297D-01
    624.453     1.63493D+00     1.53235D-01
    624.935     1.63617D+00     1.54883D-01
    625.417     1.63767D+00     1.55103D-01
    625.899     1.63891D+00     1.59466D-01
    626.382     1.63990D+00     1.62982D-01
    626.864     1.64035D+00     1.64182D-01
    627.346     1.64132D+00     1.65414D-01
    627.828     1.64247D+00     1.67944D-01
    628.310     1.64346D+00     1.70461D-01
    628.793     1.64510D+00     1.71281D-01
    629.275     1.64628D+00     1.74478D-01
    629.757     1.64707D+00     1.79510D-01
    630.239     1.64807D+00     1.78937D-01
    630.721     1.65007D+00     1.78707D-01
    631.204     1.65307D+00     1.82850D-01
    631.686     1.65523D+00     1.87326D-01
    632.168     1.65676D+00     1.92434D-01
    632.650     1.65728D+00     1.98955D-01
    633.132     1.65707D+00     2.02415D-01
    633.615     1.65747D+00     2.05150D-01
    634.097     1.65776D+00     2.08192D-01
    634.579     1.65833D+00     2.11828D-01
    635.061     1.65882D+00     2.15580D-01
    635.543     1.65914D+00     2.18805D-01
    636.026     1.66016D+00     2.22377D-01
    636.508     1.66134D+00     2.23764D-01
    636.990     1.66306D+00     2.28170D-01
    637.472     1.66393D+00     2.36120D-01
    637.954     1.66341D+00     2.42326D-01
    638.437     1.66354D+00     2.45038D-01
    638.919     1.66419D+00     2.46152D-01
    639.401     1.66536D+00     2.52747D-01
    639.883     1.66566D+00     2.61583D-01
    640.365     1.66540D+00     2.63839D-01
    640.848     1.66594D+00     2.70568D-01
    641.330     1.66567D+00     2.77650D-01
    641.812     1.66565D+00     2.81579D-01
    642.294     1.66536D+00     2.90474D-01
    642.776     1.66367D+00     2.99713D-01
    643.259     1.66169D+00     3.07441D-01
    643.741     1.65907D+00     3.12599D-01
    644.223     1.65687D+00     3.18813D-01
    644.705     1.65382D+00     3.28822D-01
    645.187     1.64946D+00     3.37776D-01
    645.670     1.64656D+00     3.37949D-01
    646.152     1.64374D+00     3.44868D-01
    646.634     1.64008D+00     3.58036D-01
    647.116     1.63517D+00     3.63565D-01
    647.598     1.62950D+00     3.70692D-01
    648.081     1.62405D+00     3.79918D-01
    648.563     1.61705D+00     3.86404D-01
    649.045     1.61023D+00     3.91393D-01
    649.527     1.60334D+00     3.98271D-01
    650.009     1.59590D+00     4.03343D-01
    650.492     1.58933D+00     4.08722D-01
    650.974     1.58156D+00     4.14812D-01
    651.456     1.57381D+00     4.20504D-01
    651.938     1.56543D+00     4.26300D-01
    652.420     1.55505D+00     4.35523D-01
    652.903     1.54397D+00     4.43285D-01
    653.385     1.53206D+00     4.41257D-01
    653.867     1.52183D+00     4.41939D-01
    654.349     1.51127D+00     4.47753D-01
    654.831     1.49853D+00     4.53358D-01
    655.314     1.48607D+00     4.53226D-01
    655.796     1.47323D+00     4.49433D-01
    656.278     1.46112D+00     4.50684D-01
    656.760     1.44873D+00     4.49598D-01
    657.242     1.43631D+00     4.44034D-01
    657.725     1.42516D+00     4.42055D-01
    658.207     1.41249D+00     4.40174D-01
    658.689     1.40021D+00     4.33939D-01
    659.171     1.38840D+00     4.25389D-01
    659.654     1.37832D+00     4.18954D-01
    660.136     1.36731D+00     4.12448D-01
    660.618     1.35687D+00     4.03999D-01
    661.100     1.34768D+00     3.90994D-01
    661.582     1.33950D+00     3.80170D-01
    662.065     1.33278D+00     3.71859D-01
    662.547     1.32595D+00     3.57954D-01
    663.029     1.32051D+00     3.46077D-01
    663.511     1.31569D+00     3.36664D-01
    663.993     1.31202D+00     3.20313D-01
    664.476     1.31139D+00     3.04486D-01
    664.958     1.31097D+00     2.96552D-01
    665.440     1.31054D+00     2.87178D-01
    665.922     1.31030D+00     2.75257D-01
    666.404     1.31077D+00     2.64502D-01
    666.887     1.31307D+00     2.51936D-01
    667.369     1.31571D+00     2.41927D-01
    667.851     1.31910D+00     2.33582D-01
    668.333     1.32320D+00     2.23153D-01
    668.815     1.32802D+00     2.13848D-01
    669.298     1.33327D+00     2.09287D-01
    669.780     1.33755D+00     2.04722D-01
    670.262     1.34279D+00     1.93807D-01
    670.744     1.34934D+00     1.87243D-01
    671.226     1.35566D+00     1.86248D-01
    671.709     1.36152D+00     1.82743D-01
    672.191     1.36625D+00     1.81307D-01
    672.673     1.37079D+00     1.77865D-01
    673.155     1.37634D+00     1.73682D-01
    673.637     1.38434D+00     1.62201D-01
    674.120     1.39322D+00     1.65600D-01
    674.602     1.39788D+00     1.80990D-01
    675.084     1.39936D+00     1.79317D-01
    675.566     1.40113D+00     1.76482D-01
    676.048     1.40408D+00     1.74568D-01
    676.531     1.40817D+00     1.73379D-01
    677.013     1.41189D+00     1.74009D-01
    677.495     1.41503D+00     1.75923D-01
    677.977     1.41699D+00     1.79758D-01
